1500	103.1606903
1499	103.1430969
1498	103.1849365
1497	103.1638184
1496	103.157135
1495	103.1750412
1494	103.1696472
1493	103.1372223
1492	103.1504517
1491	103.1946793
1490	103.1627655
1489	103.1265411
1488	103.1424561
1487	103.0978546
1486	103.1499405
1485	103.1384354
1484	103.158989
1483	103.1157227
1482	103.0704651
1481	103.0965652
1480	103.0894547
1479	103.1323547
1478	103.1419601
1477	103.0765152
1476	103.0582428
1475	103.05233
1474	103.073143
1473	103.0906448
1472	103.1266174
1471	103.0743103
1470	103.0527344
1469	103.0166016
1468	103.0148849
1467	103.0186996
1466	103.0226974
1465	103.0596466
1464	103.0631104
1463	103.0594711
1462	103.056633
1461	103.0188065
1460	103.0124054
1459	102.9865265
1458	103.0109863
1457	103.0274124
1456	103.0470352
1455	103.0353546
1454	103.0172348
1453	103.0665054
1452	102.9929199
1451	102.961792
1450	102.949585
1449	102.955101
1448	103.0172958
1447	102.9476166
1446	102.9437332
1445	102.9586792
1444	102.9264679
1443	102.9845352
1442	102.9444122
1441	102.9224548
1440	102.8678513
1439	102.9022369
1438	102.9219055
1437	102.8569565
1436	102.9213562
1435	102.8560486
1434	102.8353806
1433	102.8515091
1432	102.8405075
1431	102.8364334
1430	102.8269653
1429	102.8398514
1428	102.8158035
1427	102.782692
1426	102.8098221
1425	102.7801666
1424	102.8053131
1423	102.7279053
1422	102.7180176
1421	102.7391434
1420	102.6999359
1419	102.7362595
1418	102.6907959
1417	102.7118683
1416	102.6757355
1415	102.6730881
1414	102.657341
1413	102.6339264
1412	102.6306152
1411	102.6024475
1410	102.5935745
1409	102.5898438
1408	102.5767365
1407	102.6145782
1406	102.5352097
1405	102.581749
1404	102.5352097
1403	102.5424728
1402	102.5367279
1401	102.5459518
1400	102.5309601
1399	102.4448776
1398	102.4703522
1397	102.4770508
1396	102.484024
1395	102.4808273
1394	102.3943405
1393	102.4047012
1392	102.3671417
1391	102.3654709
1390	102.3406296
1389	102.3471451
1388	102.3285828
1387	102.3121109
1386	102.2937775
1385	102.305542
1384	102.2854767
1383	102.3026962
1382	102.2327042
1381	102.2695313
1380	102.2164001
1379	102.187088
1378	102.181694
1377	102.1174316
1376	102.1194687
1375	102.0789948
1374	102.0624771
1373	102.0163574
1372	102.0205231
1371	101.9979935
1370	101.9409409
1369	101.9925613
1368	101.924263
1367	101.9513245
1366	101.9460068
1365	101.854538
1364	101.8871994
1363	101.8603363
1362	101.8862152
1361	101.8657913
1360	101.8661957
1359	101.8489456
1358	101.8272247
1357	101.8654251
1356	101.8379822
1355	101.8237228
1354	101.8206863
1353	101.8001099
1352	101.7932434
1351	101.7486572
1350	101.7623291
1349	101.7285004
1348	101.7130356
1347	101.721405
1346	101.7023239
1345	101.7119751
1344	101.6988525
1343	101.6752625
1342	101.6749115
1341	101.656044
1340	101.6428986
1339	101.62854
1338	101.6357193
1337	101.6196747
1336	101.5969391
1335	101.600853
1334	101.5766983
1333	101.5957031
1332	101.5409317
1331	101.5622482
1330	101.5274734
1329	101.5266876
1328	101.5088043
1327	101.4819489
1326	101.490036
1325	101.4620819
1324	101.4573822
1323	101.4209747
1322	101.3854599
1321	101.4215851
1320	101.3549652
1319	101.3765717
1318	101.3585052
1317	101.3424759
1316	101.3570557
1315	101.3039551
1314	101.2930145
1313	101.2807388
1312	101.2872849
1311	101.245224
1310	101.2220154
1309	101.2474518
1308	101.1693726
1307	101.1851044
1306	101.1801758
1305	101.1615906
1304	101.1314621
1303	101.1204224
1302	101.1302261
1301	101.1182938
1300	101.0790329
1299	101.1164703
1298	101.0728607
1297	101.0847549
1296	101.0331497
1295	101.0466309
1294	101.0304413
1293	101.0173187
1292	101.0128479
1291	100.9772339
1290	100.9763947
1289	100.9996567
1288	100.9457855
1287	100.9399033
1286	100.9060593
1285	100.922966
1284	100.8786087
1283	100.8961639
1282	100.8867035
1281	100.865509
1280	100.8752441
1279	100.8265152
1278	100.8619461
1277	100.7908783
1276	100.7930908
1275	100.7995224
1274	100.7823486
1273	100.7592316
1272	100.7636871
1271	100.744545
1270	100.7553711
1269	100.7193909
1268	100.703598
1267	100.6761322
1266	100.7146835
1265	100.6560364
1264	100.6887665
1263	100.6324997
1262	100.6452713
1261	100.5899277
1260	100.5607834
1259	100.6015625
1258	100.5750885
1257	100.567482
1256	100.5738983
1255	100.4799576
1254	100.5151062
1253	100.4891739
1252	100.4909286
1251	100.4471283
1250	100.4175644
1249	100.4666901
1248	100.4032288
1247	100.4048004
1246	100.4230499
1245	100.3514404
1244	100.3341522
1243	100.3445892
1242	100.3562775
1241	100.3248062
1240	100.3031998
1239	100.3050919
1238	100.2848892
1237	100.2766495
1236	100.2351608
1235	100.2306595
1234	100.2255707
1233	100.2222748
1232	100.2082825
1231	100.1471024
1230	100.1663589
1229	100.1563339
1228	100.1732788
1227	100.1383286
1226	100.1074829
1225	100.1098251
1224	100.0700378
1223	100.0733643
1222	100.0511627
1221	100.0515594
1220	100.0173111
1219	100.0244751
1218	100.0143433
1217	100.0108948
1216	99.98588562
1215	99.97122192
1214	99.93055725
1213	99.92996216
1212	99.87579346
1211	99.91082001
1210	99.89788055
1209	99.89894867
1208	99.86195374
1207	99.84955597
1206	99.83020782
1205	99.82089233
1204	99.82639313
1203	99.79872131
1202	99.79333496
1201	99.77262878
1200	99.77662659
1199	99.76413727
1198	99.7705307
1197	99.7141571
1196	99.6933136
1195	99.73091125
1194	99.70038605
1193	99.68341827
1192	99.65567017
1191	99.64924622
1190	99.66835785
1189	99.62068939
1188	99.64483643
1187	99.59986877
1186	99.59117889
1185	99.56011963
1184	99.53612518
1183	99.54187775
1182	99.54061127
1181	99.53781128
1180	99.50141144
1179	99.50018311
1178	99.50489044
1177	99.48295593
1176	99.45172882
1175	99.45658112
1174	99.43592834
1173	99.40917206
1172	99.39379883
1171	99.38322449
1170	99.36302185
1169	99.36606598
1168	99.31751251
1167	99.3378067
1166	99.32949066
1165	99.28171539
1164	99.30293274
1163	99.26931763
1162	99.26844788
1161	99.20922089
1160	99.2145462
1159	99.21743774
1158	99.198349
1157	99.20375061
1156	99.14550781
1155	99.13343048
1154	99.1227951
1153	99.10042572
1152	99.06372833
1151	99.0893631
1150	99.06519318
1149	99.02800751
1148	99.0400238
1147	99.03487396
1146	98.97340393
1145	98.96909332
1144	98.96015167
1143	98.93406677
1142	98.93823242
1141	98.9258194
1140	98.89427185
1139	98.90740967
1138	98.86785889
1137	98.86140442
1136	98.86623383
1135	98.84454346
1134	98.84075165
1133	98.98431396
1132	98.75093079
1131	98.7798233
1130	98.73865509
1129	98.73857117
1128	98.69707489
1127	98.67881012
1126	98.68339539
1125	98.65501404
1124	98.634758
1123	98.63653564
1122	98.62116241
1121	98.60964966
1120	98.59973145
1119	98.61414337
1118	98.59125519
1117	98.53730011
1116	98.53539276
1115	98.52555084
1114	98.51792145
1113	98.48034668
1112	98.47436523
1111	98.46078491
1110	98.45670319
1109	98.45630646
1108	98.43746948
1107	98.40714264
1106	98.37683105
1105	98.38090515
1104	98.34621429
1103	98.33718109
1102	98.35723114
1101	98.3295517
1100	98.26560211
1099	98.30459595
1098	98.26163483
1097	98.25691986
1096	98.24465942
1095	98.24391937
1094	98.21514893
1093	98.17414093
1092	98.17851257
1091	98.16781616
1090	98.18609619
1089	98.18280029
1088	98.15532684
1087	98.14420319
1086	98.13282013
1085	98.12441254
1084	98.10809326
1083	98.10695648
1082	98.06718445
1081	98.04708862
1080	98.06296539
1079	98.0361557
1078	98.02590179
1077	98.04544067
1076	98.06056976
1075	98.00414276
1074	98.01942444
1073	97.99333191
1072	97.96982574
1071	97.9726944
1070	97.95149994
1069	97.93733978
1068	97.93373871
1067	97.93095398
1066	97.94454193
1065	97.89361572
1064	97.9020462
1063	97.89928436
1062	97.8742981
1061	97.84586334
1060	97.82814026
1059	97.8303833
1058	97.80800629
1057	97.79904938
1056	97.77120209
1055	97.78166962
1054	97.79198456
1053	97.76094818
1052	97.72359467
1051	97.75541687
1050	97.75002289
1049	97.75468445
1048	97.72440338
1047	97.72663879
1046	97.70703125
1045	97.71885681
1044	97.69779205
1043	97.64385986
1042	97.67542267
1041	97.69127655
1040	97.6477356
1039	97.673172
1038	97.64654541
1037	97.59978485
1036	97.59726715
1035	97.60135651
1034	97.57846832
1033	97.58966827
1032	97.54918671
1031	97.53822327
1030	97.54956055
1029	97.51721954
1028	97.52716064
1027	97.50747681
1026	97.53694153
1025	97.48490143
1024	97.47228241
1023	97.48155212
1022	97.46109772
1021	97.45842743
1020	97.4629364
1019	97.47768402
1018	97.43106079
1017	97.4617157
1016	97.40240479
1015	97.44924164
1014	97.43822479
1013	97.38446045
1012	97.44480133
1011	97.38168335
1010	97.45132446
1009	97.38909912
1008	97.37861633
1007	97.38723755
1006	97.37945557
1005	97.37975311
1004	97.34332275
1003	97.35198975
1002	97.34838867
1001	97.34490967
1000	97.35174561
999	97.32003784
998	97.29547119
997	97.29868317
996	97.28960419
995	97.2544632
994	97.28713226
993	97.29991913
992	97.26953125
991	97.24501801
990	97.24602509
989	97.25777435
988	97.23091125
987	97.26489258
986	97.21903229
985	97.24773407
984	97.19430542
983	97.21315765
982	97.21797943
981	97.20946503
980	97.19592285
979	97.15241241
978	97.16261292
977	97.14804077
976	97.15407562
975	97.14902496
974	97.14416504
973	97.14351654
972	97.13386536
971	97.14076996
970	97.10829926
969	97.09555054
968	97.07482147
967	97.09944916
966	97.10476685
965	97.08560944
964	97.11011505
963	97.06012726
962	97.09529114
961	97.05114746
960	97.04283142
959	97.03244019
958	97.02918243
957	97.01526642
956	97.0482254
955	97.01059723
954	97.02037048
953	97.04006958
952	97.04689789
951	97.0045929
950	97.03535461
949	96.98668671
948	96.95035553
947	96.9892807
946	96.95362091
945	96.99523163
944	96.98480225
943	96.95871735
942	96.94917297
941	96.94120026
940	96.96417236
939	96.9679718
938	96.94297028
937	96.93766785
936	96.93262482
935	96.90867615
934	96.9100647
933	96.93978882
932	96.90376282
931	96.91316223
930	96.93232727
929	96.86408234
928	96.89294434
927	96.89769745
926	96.93885803
925	96.89285278
924	96.86524963
923	96.88419342
922	96.86624146
921	96.87380219
920	96.88548279
919	96.83766937
918	96.86943054
917	96.82879639
916	96.85365295
915	96.82527924
914	96.88373566
913	96.84501648
912	96.83746338
911	96.8287735
910	96.80381775
909	96.8636322
908	96.84020996
907	96.79761505
906	96.83798218
905	96.78145599
904	96.77616119
903	96.78235626
902	96.79735565
901	96.75773621
900	96.79927063
899	96.78442383
898	96.72714233
897	96.7888031
896	96.74879456
895	96.74333954
894	96.75938416
893	96.74188995
892	96.78459167
891	96.68858337
890	96.74533081
889	96.72032928
888	96.72640991
887	96.70122528
886	96.7467041
885	96.70385742
884	96.71503448
883	96.7168045
882	96.69633484
881	96.64353943
880	96.71212769
879	96.69981384
878	96.65042114
877	96.66929626
876	96.66303253
875	96.5837326
874	96.51907349
873	96.46649933
872	96.45384216
871	96.48436737
870	96.4595108
869	96.4748764
868	96.44824982
867	96.44011688
866	96.42987823
865	96.41799927
864	96.418396
863	96.43006897
862	96.38591003
861	96.36598206
860	96.43894196
859	96.39147949
858	96.42444611
857	96.37419891
856	96.39389801
855	96.36976624
854	96.38440704
853	96.37773895
852	96.36442566
851	96.41888428
850	96.31387329
849	96.40015411
848	96.34714508
847	96.36742401
846	96.3703537
845	96.28356171
844	96.32030487
843	96.26896667
842	96.30751801
841	96.31861115
840	96.30358124
839	96.22751617
838	96.19029236
837	96.23568726
836	96.19665527
835	96.2093811
834	96.20722961
833	96.16754913
832	96.11756897
831	96.0537262
830	96.09281921
829	96.04368591
828	96.00904846
827	96.07242584
826	96.00087738
825	96.03125763
824	96.00113678
823	96.00575256
822	95.92520905
821	95.95022583
820	95.92792511
819	95.89207458
818	95.87729645
817	95.84952545
816	95.79430389
815	95.77433777
814	95.77861023
813	95.78131866
812	95.72844696
811	95.69277954
810	95.76748657
809	95.6493988
808	95.66253662
807	95.53736115
806	95.66545105
805	95.58567047
804	95.54107666
803	95.5056076
802	95.45802307
801	95.5115509
800	95.43943787
799	89.73477936
798	89.72634125
797	89.65664673
796	89.67576599
795	89.80314636
794	89.64692688
793	89.57422638
792	89.57897949
791	89.68547821
790	89.5765152
789	89.55600739
788	89.59983063
787	89.47101593
786	89.44068909
785	89.50286865
784	89.40507507
783	89.40759277
782	89.35643768
781	89.37584686
780	89.29118347
779	89.30731201
778	89.29431152
777	89.27105713
776	89.25001526
775	89.2099762
774	89.19932556
773	89.19689941
772	89.16860962
771	89.13809204
770	89.12854767
769	89.08539581
768	89.10087585
767	89.04872894
766	89.03429413
765	88.9861145
764	88.98936462
763	88.91188812
762	88.91886139
761	88.8915329
760	88.88228607
759	88.82115173
758	88.77393341
757	88.81806183
756	88.80267334
755	88.73991394
754	88.71060181
753	88.68717957
752	88.66550446
751	88.68395996
750	88.56586456
749	88.56859589
748	88.55874634
747	88.53030396
746	88.46183014
745	88.48249054
744	88.47446442
743	88.37663269
742	88.41262817
741	88.39917755
740	88.31501007
739	88.25304413
738	88.27183533
737	88.23177338
736	88.20615387
735	88.22012329
734	88.19564819
733	88.1087265
732	88.14789581
731	88.08940887
730	88.0506897
729	88.06135559
728	87.99895477
727	87.97144318
726	87.93953705
725	87.85827637
724	87.85892487
723	87.81098175
722	87.80939484
721	87.78330231
720	87.76029205
719	87.73574066
718	87.70826721
717	87.70227051
716	87.65270233
715	87.62129974
714	87.62640381
713	87.58997345
712	87.57752228
711	87.56261444
710	87.51338196
709	87.4678421
708	87.46044922
707	87.46799469
706	87.4088974
705	87.40245056
704	87.35216522
703	87.33774567
702	87.30399323
701	87.32260132
700	87.28739166
699	87.22531128
698	87.23226166
697	87.17896271
696	87.20690918
695	87.15985107
694	87.16831207
693	87.14767456
692	87.14517975
691	87.13050842
690	87.11054993
689	87.07431793
688	87.09031677
687	87.06533813
686	87.05112457
685	87.04119873
684	87.03192139
683	87.01230621
682	86.97918701
681	87.02796173
680	86.95740509
679	86.93249512
678	86.95727539
677	86.94898224
676	86.93173981
675	86.91971588
674	86.90792084
673	86.90870667
672	86.9082489
671	86.89363098
670	86.91661835
669	86.92360687
668	86.89849091
667	86.89063263
666	86.8875885
665	86.87995911
664	86.89205933
663	86.88690186
662	86.87504578
661	86.83289337
660	86.83004761
659	86.82132721
658	86.80335236
657	86.8015213
656	86.7972641
655	86.77237701
654	86.75325775
653	86.75294495
652	86.76663971
651	86.75119019
650	86.70232391
649	86.70062256
648	86.69473267
647	86.67628479
646	86.68052673
645	86.63593292
644	86.64832306
643	86.61952209
642	86.5932312
641	86.58609009
640	86.5933609
639	86.56873322
638	86.54696655
637	86.53453827
636	86.52415466
635	86.48870087
634	86.47514343
633	86.46990967
632	86.41023254
631	86.40866852
630	86.38998413
629	86.37430573
628	86.36943817
627	86.40491486
626	86.41222382
625	86.38275909
624	86.3684082
623	86.35961914
622	86.38106537
621	86.36458588
620	86.39042664
619	86.39854431
618	86.42160034
617	86.44091034
616	86.44264221
615	86.44669342
614	86.46167755
613	86.49367523
612	86.52168274
611	86.57388306
610	86.61153412
609	86.65670013
608	86.69360352
607	86.74846649
606	86.81251526
605	86.85216522
604	86.93136597
603	86.98390961
602	87.00538635
601	87.07190704
600	87.09367371
599	87.14750671
598	87.15452576
597	87.19055939
596	87.22425079
595	87.25911713
594	87.28515625
593	87.3243103
592	87.32260132
591	87.32151031
590	87.32053375
589	87.32518005
588	87.31429291
587	87.33551788
586	87.33448029
585	87.33071899
584	87.35218811
583	87.35456848
582	87.39696503
581	87.40657806
580	87.43076324
579	87.45353699
578	87.45796967
577	87.53923035
576	87.55488586
575	87.58933258
574	87.64715576
573	87.69340515
572	87.73003387
571	87.78179169
570	87.8374939
569	87.81478119
568	87.89891052
567	88.00229645
566	88.10960388
565	88.15527344
564	88.23238373
563	88.33330536
562	88.37056732
561	88.47749329
560	88.55191803
559	88.65446472
558	88.71799469
557	88.80196381
556	88.92602539
555	88.99665833
554	89.08504486
553	89.15235138
552	89.26222992
551	89.35242462
550	89.42926025
549	89.53295135
548	89.6290741
547	89.7598114
546	89.82504272
545	89.92540741
544	90.04308319
543	90.1794281
542	90.28899384
541	90.35531616
540	90.47589874
539	90.62242126
538	90.71277618
537	90.81122589
536	90.91149139
535	91.01622009
534	91.09422302
533	91.24950409
532	91.34479523
531	91.44658661
530	91.56642151
529	91.6720047
528	91.75217438
527	91.86676788
526	91.96686554
525	92.08805847
524	92.17794037
523	92.26065063
522	92.41435242
521	92.52615356
520	92.60057831
519	92.72384644
518	92.81167603
517	92.91604614
516	92.99854279
515	93.08669281
514	93.18434906
513	93.29296112
512	93.36271667
511	93.44533539
510	93.56149292
509	93.63634491
508	93.72636414
507	93.8179245
506	93.90752411
505	93.99501038
504	94.07587433
503	94.18592834
502	94.25900269
501	94.33477783
500	94.44018555
499	94.54346466
498	94.62413788
497	94.6894455
496	94.82872009
495	94.89588165
494	94.97742462
493	95.05198669
492	95.15120697
491	95.23529053
490	95.31790161
489	95.41043854
488	95.47940826
487	95.54219818
486	95.64424896
485	95.68779755
484	95.78379822
483	95.8575592
482	95.93251038
481	95.98752594
480	96.05992126
479	96.09658051
478	96.20022583
477	96.23209381
476	96.27120209
475	96.33487701
474	96.36782074
473	96.43305206
472	96.46484375
471	96.50280762
470	96.51065063
469	96.55645752
468	96.59588623
467	96.6110611
466	96.64651489
465	96.62621307
464	96.59883881
463	96.59598541
462	96.58603668
461	96.59525299
460	96.59196472
459	96.59159088
458	96.54792786
457	96.51206207
456	96.50156403
455	96.45140839
454	96.42040253
453	96.37232208
452	96.30880737
451	96.25602722
450	96.20114899
449	96.15577698
448	96.07504272
447	96.01499176
446	95.91398621
445	95.79161072
444	95.72715759
443	95.61711884
442	95.52270508
441	95.41982269
440	95.33319092
439	95.15973663
438	95.02320099
437	94.958992
436	94.82497406
435	94.63282776
434	94.53072357
433	94.38499451
432	94.2596283
431	94.07726288
430	93.94297791
429	93.80191803
428	93.69249725
427	93.44764709
426	93.30290222
425	93.19631958
424	93.03102112
423	92.79512024
422	92.65608978
421	92.48123169
420	92.25973511
419	92.10988617
418	91.96924591
417	91.7141037
416	91.55875397
415	91.34299469
414	91.16709137
413	90.95996094
412	90.74363708
411	90.54460144
410	90.35116577
409	90.15050507
408	89.97931671
407	89.73801422
406	89.55496216
405	89.42774963
404	89.19074249
403	88.96797943
402	88.72296906
401	88.57991791
400	88.31597137
399	88.10665894
398	87.88861084
397	87.70226288
396	87.44941711
395	87.23159027
394	87.03607941
393	86.87995911
392	86.66278076
391	86.42630768
390	86.21012878
389	86.03125
388	85.78198242
387	85.60375214
386	85.41732788
385	85.15752411
384	84.97146606
383	84.75774384
382	84.5645752
381	84.3109436
380	84.08321381
379	83.92539215
378	83.72655487
377	83.41191101
376	83.23213196
375	83.06906891
374	82.74999237
373	82.44483948
372	82.29052734
371	82.08272552
370	81.81856537
369	81.54173279
368	81.3351059
367	81.07331848
366	80.89069366
365	80.53379822
364	80.31890106
363	80.05519867
362	79.84017181
361	79.54077148
360	79.28395081
359	79.1006012
358	78.75217438
357	78.63828278
356	78.31993866
355	78.0581665
354	77.83596039
353	77.5880127
352	77.32781219
351	77.06523895
350	76.8540802
349	76.06827545
348	75.89499664
347	75.5382843
346	75.42903137
345	75.22577667
344	75.03598022
343	74.7184906
342	74.5716095
341	74.27112579
340	74.22545624
339	74.00595856
338	73.71403503
337	73.62865448
336	73.50244904
335	73.24047852
334	72.90132904
333	73.03892517
332	72.8080368
331	72.60090637
330	72.38996887
329	72.36652374
328	72.15667725
327	71.91812897
326	71.77760315
325	71.64478302
324	71.5423584
323	71.33252716
322	71.28170776
321	71.19010925
320	71.03962708
319	70.90009308
318	70.82688141
317	70.82659149
316	70.71582031
315	70.48360443
314	70.33560181
313	70.31493378
312	70.09804535
311	70.12730408
310	70.0202713
309	69.89555359
308	69.81716156
307	69.74469757
306	69.63461304
305	69.66545868
304	69.41805267
303	69.40242767
302	69.44963837
301	69.39736176
300	69.25855255
299	69.25315094
298	69.15843964
297	69.17822266
296	69.10475922
295	68.98627472
294	69.0453186
293	68.90785217
292	68.90987396
291	68.84911346
290	68.71788788
289	68.70451355
288	68.53057861
287	68.53604126
286	68.43317413
285	68.43388367
284	68.28196716
283	68.25098419
282	68.18638611
281	68.09984589
280	68.01217651
279	67.93336487
278	67.81322479
277	67.72216797
276	67.67446136
275	67.58040619
274	67.45375061
273	67.36193848
272	67.32061768
271	67.07509613
270	67.12051392
269	67.10505676
268	66.90950775
267	66.9342041
266	66.80802155
265	66.76321411
264	66.69891357
263	66.63124847
262	66.59175873
261	66.6218338
260	66.538414
259	66.56990051
258	66.48426819
257	66.47215271
256	66.50820923
255	66.47579193
254	66.43045807
253	66.23007965
252	66.25718689
251	66.15724182
250	66.35302734
249	66.38677979
248	66.32217407
247	66.26091003
246	66.14588165
245	65.97414398
244	65.84529877
243	65.68141937
242	65.53230286
241	65.25918579
240	64.92444611
239	64.52623749
238	64.03829956
237	63.5182724
236	62.86985397
235	62.14910126
234	61.30282974
233	60.49448776
232	59.75053787
231	58.94385529
230	58.40712738
229	57.89396286
228	57.42515945
227	57.05074692
226	56.83763123
225	56.65007782
224	56.41378784
223	56.24264526
222	56.22578812
221	56.23285294
220	56.24968338
219	56.37582397
218	56.53911972
217	56.65325546
216	57.00146103
215	57.28995895
214	57.75111389
213	57.88348389
212	58.30271149
211	58.64840317
210	59.06860352
209	59.52178192
208	59.91170502
207	60.32509232
206	60.62217331
205	61.0558815
204	61.37273407
203	61.88924789
202	61.80939102
201	61.81472015
200	63.01452637
